000000000000067	من
000000000000055	في
000000000000047	الله
000000000000041	علي
000000000000038	ان
000000000000032	عليه
000000000000026	ما
000000000000022	وسلم
000000000000022	صلي
000000000000019	لا
000000000000018	ذلك
000000000000015	وان
000000000000015	عن
000000000000015	امتي
000000000000013	الحديث
000000000000012	كان
000000000000012	رسول
000000000000012	امة
000000000000012	الي
000000000000012	الا
000000000000011	وسبعين
000000000000010	قال
000000000000010	فيه
000000000000010	فرقة
000000000000010	انه
000000000000009	هو
000000000000009	قوله
000000000000009	الفرقة
000000000000008	ولا
000000000000008	هم
000000000000008	قد
000000000000008	عليها
000000000000008	او
000000000000008	الافتراق
000000000000007	وقد
000000000000007	حديث
000000000000007	به
000000000000007	بن
000000000000007	الناجية
000000000000007	الدين
000000000000007	الامة
000000000000006	وما
000000000000006	هذه
000000000000006	هذا
000000000000006	مرحومة
000000000000006	لها
000000000000006	حتي
000000000000006	بعد
000000000000006	الفرق
000000000000006	الذين
000000000000006	الاشكال
000000000000006	الاحاديث
000000000000006	اكثر
000000000000006	ابي
000000000000005	وهذا
000000000000005	هي
000000000000005	هالكة
000000000000005	كما
000000000000005	كلها
000000000000005	كل
000000000000005	فلا
000000000000005	فان
000000000000005	تلك
000000000000005	الهالكين
000000000000005	النار
000000000000005	الزمان
000000000000005	الدنيا
000000000000005	الاجابة
000000000000005	اخر
000000000000004	يا
000000000000004	وهم
000000000000004	ومن
000000000000004	وفي
000000000000004	وحديث
000000000000004	نفسه
000000000000004	محمد
000000000000004	ليس
000000000000004	لما
000000000000004	كثرة
000000000000004	عنه
000000000000004	زمن
000000000000004	بها
000000000000004	بما
000000000000004	بعض
000000000000004	بالهلاك
000000000000004	باعتبار
000000000000004	النبي
000000000000004	الناجين
000000000000004	القضية
000000000000004	الحكم
000000000000004	اخرجه
000000000000004	ابن
000000000000003	يكون
000000000000003	ولو
000000000000003	وقوله
000000000000003	وانه
000000000000003	والهلاك
000000000000003	والذي
000000000000003	واصحابه
000000000000003	واخرج
000000000000003	نقل
000000000000003	منها
000000000000003	مما
000000000000003	ملة
000000000000003	متبع
000000000000003	لياتين
000000000000003	لم
000000000000003	لبيان
000000000000003	كلامه
000000000000003	كتب
000000000000003	قيل
000000000000003	قلت
000000000000003	فيها
000000000000003	فيكون
000000000000003	فمن
000000000000003	فقال
000000000000003	غير
000000000000003	ظاهر
000000000000003	طرق
000000000000003	طاءفة
000000000000003	ستفترق
000000000000003	زمان
000000000000003	رواية
000000000000003	رحمة
000000000000003	ذليلان
000000000000003	ذكر
000000000000003	ذات
000000000000003	دلت
000000000000003	داود
000000000000003	داءمة
000000000000003	خلافه
000000000000003	حين
000000000000003	جاء
000000000000003	ثم
000000000000003	ثلاث
000000000000003	تعالي
000000000000003	بين
000000000000003	بهذا
000000000000003	بحمد
000000000000003	انهم
000000000000003	انها
000000000000003	انما
000000000000003	الهلاك
000000000000003	الناس
000000000000003	الكتاب
000000000000003	الغرباء
000000000000003	السنة
000000000000003	الذي
000000000000003	الحق
000000000000003	الجنة
000000000000003	الثقات
000000000000003	الثالث
000000000000003	الترمذي
000000000000003	اكثرية
000000000000003	اعمالها
000000000000003	اذا
000000000000003	ابو
000000000000002	يهلك
000000000000002	ينافي
000000000000002	يعني
000000000000002	يصلحون
000000000000002	يخفي
000000000000002	يجوز
000000000000002	وهلاك
000000000000002	وقال
000000000000002	وغيره
000000000000002	وشفاعة
000000000000002	وستفترق
000000000000002	وزمن
000000000000002	وذلك
000000000000002	وذكر
000000000000002	وجوه
000000000000002	وانما
000000000000002	والنصاري
000000000000002	والكون
000000000000002	والحق
000000000000002	واقلية
000000000000002	واضطهدا
000000000000002	واصحابي
000000000000002	وادبارا
000000000000002	واحدة
000000000000002	و
000000000000002	هل
000000000000002	نيف
000000000000002	مقهوران
000000000000002	مستقبل
000000000000002	مثل
000000000000002	مبني
000000000000002	لهم
000000000000002	له
000000000000002	لمن
000000000000002	لكنها
000000000000002	لكل
000000000000002	كلام
000000000000002	كحديث
000000000000002	كانت
000000000000002	قوم
000000000000002	قبله
000000000000002	قبلكم
000000000000002	فيما
000000000000002	فهما
000000000000002	فقد
000000000000002	فرق
000000000000002	فانه
000000000000002	غريبا
000000000000002	عين
000000000000002	عنها
000000000000002	عمرو
000000000000002	عليهم
000000000000002	عقابها
000000000000002	عذاب
000000000000002	ظهر
000000000000002	صحيح
000000000000002	شعب
000000000000002	سعة
000000000000002	زاده
000000000000002	خلاف
000000000000002	حيث
000000000000002	حكم
000000000000002	حسن
000000000000002	حزم
000000000000002	حال
000000000000002	جواب
000000000000002	جاءهم
000000000000002	جاءتهم
000000000000002	ثنتين
000000000000002	ثبت
000000000000002	تفرقت
000000000000002	تعاقب
000000000000002	تحمل
000000000000002	بني
000000000000002	بانهم
000000000000002	بانها
000000000000002	بالسين
000000000000002	باسرها
000000000000002	اوتوا
000000000000002	اهل
000000000000002	انواط
000000000000002	انتهي
000000000000002	انا
000000000000002	امر
000000000000002	اليهود
000000000000002	اليها
000000000000002	الواردة
000000000000002	النبوي
000000000000002	الناجون
000000000000002	المرادون
000000000000002	المراد
000000000000002	القبيلة
000000000000002	الفتن
000000000000002	العدد
000000000000002	الظاهر
000000000000002	الطبراني
000000000000002	السبل
000000000000002	الدالة
000000000000002	الحافظ
000000000000002	الجواب
000000000000002	الجهة
000000000000002	الجمع
000000000000002	الثاني
000000000000002	التي
000000000000002	التناقض
000000000000002	البينات
000000000000002	الايمان
000000000000002	الاول
000000000000002	الاقوال
000000000000002	الازمان
000000000000002	الاخرة
000000000000002	الاحيان
000000000000002	الاثير
000000000000002	اقبالا
000000000000002	افترقوا
000000000000002	افتراق
000000000000002	اصحابه
000000000000002	اسراءيل
000000000000002	ادبار
000000000000002	اختلف
000000000000002	اخبار
000000000000002	احدي
000000000000002	اتي
000000000000001	يوهم
000000000000001	يوجد
000000000000001	ينتهي
000000000000001	يمنع
000000000000001	يمكن
000000000000001	يلزم
000000000000001	يكن
000000000000001	يكتفي
000000000000001	يقوي
000000000000001	يقال
000000000000001	يفرون
000000000000001	يعلقون
000000000000001	يعصيهم
000000000000001	يظهر
000000000000001	يطيعهم
000000000000001	يضرهم
000000000000001	يصنع
000000000000001	يصدق
000000000000001	يصبح
000000000000001	يشتغل
000000000000001	يستحلون
000000000000001	يريد
000000000000001	يرد
000000000000001	يرحمه
000000000000001	يراد
000000000000001	يديه
000000000000001	يدل
000000000000001	يدفع
000000000000001	يدعي
000000000000001	يخفاه
000000000000001	يحكم
000000000000001	يحصي
000000000000001	يجدان
000000000000001	يتم
000000000000001	يبعده
000000000000001	يبعد
000000000000001	ياتيه
000000000000001	ياتي
000000000000001	ويمسي
000000000000001	ويقظتهم
000000000000001	ويعمد
000000000000001	ويحدث
000000000000001	ويحتمل
000000000000001	ووحدة
000000000000001	وواحدة
000000000000001	وهي
000000000000001	وهما
000000000000001	وهلم
000000000000001	ونومهم
000000000000001	ونهيا
000000000000001	ونقل
000000000000001	ومنهم
000000000000001	ومسلم
000000000000001	وليلي
000000000000001	وليسوا
000000000000001	ولما
000000000000001	ولكنه
000000000000001	وكونها
000000000000001	وكلام
000000000000001	وكثرتها
000000000000001	وكان
000000000000001	وقهرا
000000000000001	وقمعا
000000000000001	وقلة
000000000000001	وفعليا
000000000000001	وفشو
000000000000001	وغير
000000000000001	وعين
000000000000001	وعهد
000000000000001	وعندي
000000000000001	وعدم
000000000000001	وضع
000000000000001	وصلا
000000000000001	وصف
000000000000001	وشعبها
000000000000001	وشربهم
000000000000001	وسيعود
000000000000001	وسعتها
000000000000001	وسبعون
000000000000001	وزمان
000000000000001	وردت
000000000000001	ورد
000000000000001	ورابعها
000000000000001	وخفاء
000000000000001	وحسبه
000000000000001	وجعله
000000000000001	وثانيها
000000000000001	وثالثها
000000000000001	وتفريطها
000000000000001	وتفرقت
000000000000001	وبعد
000000000000001	وبذلك
000000000000001	وبانها
000000000000001	وبالهلاك
000000000000001	وبالجملة
000000000000001	واهله
000000000000001	وانهم
000000000000001	وانس
000000000000001	وانتهاءها
000000000000001	والقتل
000000000000001	والفقيهان
000000000000001	والفرقة
000000000000001	والفاسقان
000000000000001	والزمان
000000000000001	والزلازل
000000000000001	والجهالة
000000000000001	والترمذي
000000000000001	والتدابر
000000000000001	والبيهقي
000000000000001	والبلايا
000000000000001	والاقرار
000000000000001	والا
000000000000001	واكثرية
000000000000001	واكثرها
000000000000001	واقد
000000000000001	وافق
000000000000001	وافعالهم
000000000000001	وافعاله
000000000000001	وافرد
000000000000001	واختلفوا
000000000000001	واحاديث
000000000000001	همة
000000000000001	هريرة
000000000000001	ه
000000000000001	نهيت
000000000000001	نفسي
000000000000001	نعم
000000000000001	نظير
000000000000001	نشا
000000000000001	نبيها
000000000000001	ناس
000000000000001	نادرا
000000000000001	ناج
000000000000001	موضوعة
000000000000001	موسي
000000000000001	منهمما
000000000000001	منهم
000000000000001	ممن
000000000000001	مليت
000000000000001	مقيدا
000000000000001	مقدوحا
000000000000001	مقالات
000000000000001	مفتقرة
000000000000001	مغفور
000000000000001	معناها
000000000000001	معلم
000000000000001	معلا
000000000000001	معاوية
000000000000001	مع
000000000000001	مشكلا
000000000000001	مشروط
000000000000001	مشار
000000000000001	مسمي
000000000000001	مستمر
000000000000001	مر
000000000000001	مخالفة
000000000000001	محكوم
000000000000001	مجموعها
000000000000001	مثلا
000000000000001	متقيد
000000000000001	متبعوا
000000000000001	متبعة
000000000000001	متاب
000000000000001	مبتدعة
000000000000001	مالك
000000000000001	ماجة
000000000000001	مءمنا
000000000000001	ليكونن
000000000000001	ليكون
000000000000001	ليبين
000000000000001	لي
000000000000001	لولا
000000000000001	لوحدته
000000000000001	لوجد
000000000000001	لهذا
000000000000001	لنا
000000000000001	لليلي
000000000000001	للمشركين
000000000000001	للفقير
000000000000001	للغرباء
000000000000001	للسنة
000000000000001	للزم
000000000000001	للامة
000000000000001	لكن
000000000000001	لك
000000000000001	لقصر
000000000000001	لفظه
000000000000001	لفظ
000000000000001	لعدم
000000000000001	لظاهر
000000000000001	لطالحيها
000000000000001	لطال
000000000000001	لتلك
000000000000001	لتركبن
000000000000001	لتحلية
000000000000001	لايتانها
000000000000001	لاعتمادها
000000000000001	لاتزال
000000000000001	كونها
000000000000001	كنتم
000000000000001	كليلة
000000000000001	كله
000000000000001	كفاه
000000000000001	كثير
000000000000001	كانوا
000000000000001	كانه
000000000000001	كانا
000000000000001	كالقابض
000000000000001	كالذين
000000000000001	كالاشعرية
000000000000001	كافرا
000000000000001	كاءنة
000000000000001	قيام
000000000000001	قوليا
000000000000001	قهرا
000000000000001	قمعا
000000000000001	قليلة
000000000000001	قليل
000000000000001	قلنا
000000000000001	قلتهم
000000000000001	قطعا
000000000000001	قصور
000000000000001	قرنهم
000000000000001	قرن
000000000000001	قام
000000000000001	قالوا
000000000000001	قارءن
000000000000001	فينقله
000000000000001	فينا
000000000000001	فيعلون
000000000000001	فيتم
000000000000001	فهذه
000000000000001	فليست
000000000000001	فلو
000000000000001	فكل
000000000000001	فقالوا
000000000000001	فطوبي
000000000000001	فضل
000000000000001	فسد
000000000000001	فتلك
000000000000001	فتفرق
000000000000001	فتعين
000000000000001	فتش
000000000000001	فامرا
000000000000001	فالحديث
000000000000001	فالامة
000000000000001	فاذا
000000000000001	فاءدة
000000000000001	غيره
000000000000001	غزوة
000000000000001	غريب
000000000000001	غربة
000000000000001	غبار
000000000000001	غالبا
000000000000001	عيب
000000000000001	عوف
000000000000001	عنده
000000000000001	عند
000000000000001	عما
000000000000001	علانية
000000000000001	عفا
000000000000001	عز
000000000000001	عرفت
000000000000001	عرف
000000000000001	عذابها
000000000000001	عديدة
000000000000001	عددا
000000000000001	عدد
000000000000001	عبدالله
000000000000001	عبد
000000000000001	ظاهرين
000000000000001	طريق
000000000000001	طاءفتا
000000000000001	ضلالة
000000000000001	صرح
000000000000001	صحته
000000000000001	صحة
000000000000001	صالحيها
000000000000001	صالحون
000000000000001	صالحوا
000000000000001	شهرته
000000000000001	شهر
000000000000001	شك
000000000000001	شراءطهما
000000000000001	شذت
000000000000001	شحنت
000000000000001	شاركوه
000000000000001	شء
000000000000001	سيكون
000000000000001	سوء
000000000000001	سنن
000000000000001	سنح
000000000000001	سنتي
000000000000001	سنة
000000000000001	سمعته
000000000000001	سلام
000000000000001	سردناها
000000000000001	سبيله
000000000000001	سبيل
000000000000001	سبحان
000000000000001	سالني
000000000000001	ساقها
000000000000001	ساقه
000000000000001	زيادة
000000000000001	زاد
000000000000001	رساءله
000000000000001	رزقه
000000000000001	رحمه
000000000000001	رايناهم
000000000000001	راي
000000000000001	ذي
000000000000001	ذكره
000000000000001	دينه
000000000000001	دل
000000000000001	دعواها
000000000000001	دعواه
000000000000001	دعاها
000000000000001	دالة
000000000000001	داءم
000000000000001	خير
000000000000001	خلفه
000000000000001	خطاب
000000000000001	خرج
000000000000001	خذلهم
000000000000001	خالفهم
000000000000001	خالفه
000000000000001	خاطبه
000000000000001	حينية
000000000000001	حينهم
000000000000001	حنين
000000000000001	حكموا
000000000000001	حرف
000000000000001	حرره
000000000000001	حذوا
000000000000001	حديثه
000000000000001	جيده
000000000000001	جيد
000000000000001	جهتين
000000000000001	جهتي
000000000000001	جمع
000000000000001	جعلناه
000000000000001	جعلنا
000000000000001	جعل
000000000000001	جرا
000000000000001	جامع
000000000000001	ثنتان
000000000000001	ثقة
000000000000001	ثبوت
000000000000001	توفيق
000000000000001	توجيه
000000000000001	تم
000000000000001	تلما
000000000000001	تكونوا
000000000000001	تكون
000000000000001	تكلمه
000000000000001	تكلما
000000000000001	تكلم
000000000000001	تكذبها
000000000000001	تقيم
000000000000001	تقرير
000000000000001	تقر
000000000000001	تفقه
000000000000001	تفرقوا
000000000000001	تفرق
000000000000001	تفترق
000000000000001	تعيين
000000000000001	تعورف
000000000000001	تعدده
000000000000001	تزعم
000000000000001	تزال
000000000000001	تري
000000000000001	تجنبه
000000000000001	تجفو
000000000000001	تتحقق
000000000000001	تتبعوا
000000000000001	بيده
000000000000001	بيت
000000000000001	بوحدانيته
000000000000001	بهذه
000000000000001	بهالكة
000000000000001	بمعني
000000000000001	بلفظها
000000000000001	بلا
000000000000001	بل
000000000000001	بكم
000000000000001	بقوله
000000000000001	بفساده
000000000000001	بفرقة
000000000000001	بعضهم
000000000000001	بعدها
000000000000001	بعدم
000000000000001	بعثني
000000000000001	بطاءفتي
000000000000001	بصحته
000000000000001	بشجرة
000000000000001	برهانا
000000000000001	بذلك
000000000000001	بذاكا
000000000000001	بدينهم
000000000000001	بدا
000000000000001	بد
000000000000001	بخلوصه
000000000000001	بخلاف
000000000000001	بحدي
000000000000001	بتعداد
000000000000001	بان
000000000000001	بامر
000000000000001	بالنعل
000000000000001	بالنسبة
000000000000001	بالنجاة
000000000000001	بالناظر
000000000000001	بالمعروف
000000000000001	بالمتبع
000000000000001	بالله
000000000000001	بالخيرية
000000000000001	بالتفسير
000000000000001	بالامة
000000000000001	بالافتراق
000000000000001	بافتراق
000000000000001	ايضا
000000000000001	اي
000000000000001	اوهي
000000000000001	اولي
000000000000001	اولا
000000000000001	اوصافهم
000000000000001	اوتوه
000000000000001	اواثنين
000000000000001	اهله
000000000000001	انوط
000000000000001	انطوي
000000000000001	انصافا
000000000000001	انصارا
000000000000001	انسان
000000000000001	انس
000000000000001	امن
000000000000001	امرت
000000000000001	امته
000000000000001	امامة
000000000000001	اليهم
000000000000001	اليه
000000000000001	الينا
000000000000001	الوزير
000000000000001	الوجه
000000000000001	الهم
000000000000001	الهدي
000000000000001	الهالكون
000000000000001	الهالكة
000000000000001	الهادي
000000000000001	النعل
000000000000001	النصاري
000000000000001	النزاع
000000000000001	النبوية
000000000000001	الناجشية
000000000000001	المنهي
000000000000001	المنكر
000000000000001	المقالات
000000000000001	المفترقين
000000000000001	المفترقة
000000000000001	المعروف
000000000000001	المعتزلة
000000000000001	المضارع
000000000000001	المصير
000000000000001	المشهور
000000000000001	المشهود
000000000000001	المشركين
000000000000001	المشار
000000000000001	المستقبل
000000000000001	المرء
000000000000001	المخالفة
000000000000001	المحكوم
000000000000001	المحدثين
000000000000001	المتفرع
000000000000001	المتطاولة
000000000000001	المبتدع
000000000000001	المءنة
000000000000001	الليثي
000000000000001	اللله
000000000000001	الكلام
000000000000001	الكبير
000000000000001	القعدة
000000000000001	القرون
000000000000001	القباءل
000000000000001	القابض
000000000000001	الفقيه
000000000000001	الفاسق
000000000000001	الفاء
000000000000001	العنكبوت
000000000000001	العمي
000000000000001	العلماء
000000000000001	العلم
000000000000001	العلامة
000000000000001	العاص
000000000000001	الظن
000000000000001	الظلال
000000000000001	الضلال
000000000000001	الشراءع
000000000000001	السيف
000000000000001	السيد
000000000000001	الساعة
000000000000001	الزيادة
000000000000001	الرواه
000000000000001	الرسلول
000000000000001	الرحمة
000000000000001	الرجل
000000000000001	الراوي
000000000000001	الرابع
000000000000001	الدهر
000000000000001	الدعوة
000000000000001	الدال
000000000000001	الداخلين
000000000000001	الخز
000000000000001	الخامس
000000000000001	الحين
000000000000001	الحاكمة
000000000000001	الحارم
000000000000001	الجملة
000000000000001	الجمرة
000000000000001	الجماعة
000000000000001	الجزء
000000000000001	الثانية
000000000000001	التكلم
000000000000001	التفسير
000000000000001	التفرق
000000000000001	التباس
000000000000001	البينة
000000000000001	البيت
000000000000001	البخاري
000000000000001	الباطل
000000000000001	الاولي
000000000000001	الامير
000000000000001	الامم
000000000000001	الالباب
000000000000001	الاكثر
000000000000001	الاصول
000000000000001	الاسلام
000000000000001	الاستقبال
000000000000001	الاخوان
000000000000001	الاحسن
000000000000001	اكلهم
000000000000001	اقوالهم
000000000000001	اقواله
000000000000001	اقل
000000000000001	اقبال
000000000000001	افسد
000000000000001	اعوانا
000000000000001	اطول
000000000000001	اطلقت
000000000000001	اصل
000000000000001	اشنع
000000000000001	اشكال
000000000000001	اسماعيل
000000000000001	اسلحتهم
000000000000001	استقل
000000000000001	استشكل
000000000000001	ازمنة
000000000000001	اذ
000000000000001	ادني
000000000000001	ادعي
000000000000001	ادرج
000000000000001	اخرج
000000000000001	اخبارا
000000000000001	احدها
000000000000001	احاديث
000000000000001	اجوبة
000000000000001	اجعل
000000000000001	اجتمعوا
000000000000001	اجتماع
000000000000001	اجاب
000000000000001	اثنتين
000000000000001	اتفقوا
000000000000001	اتساع
000000000000001	اتبعهم
000000000000001	اتباعها
000000000000001	اتباعا
000000000000001	ابراهيم
000000000000001	اءمة